* Poses QdeT
$ml1
*temps(mn)|Débit(m3/s)
*---------++++++++++
     0.000   610.143
     5.000   610.143
    20.000   606.116
    35.000   607.590
    50.000   607.426
    65.000   601.805
    80.000   602.573
    95.000   600.887
   110.000   604.828
   125.000   591.394
   140.000   591.338
   155.000   612.495
   170.000   600.348
   185.000   593.815
   200.000   584.754
   215.000   578.605
   230.000   579.516
   245.000   577.754
   260.000   577.625
   275.000   577.936
   290.000   578.556
   305.000   578.747
   320.000   576.245
   335.000   575.862
   350.000   576.973
   365.000   576.287
   380.000   579.828
   395.000   578.565
   410.000   572.978
   425.000   571.063
   440.000   566.399
   455.000   561.198
   470.000   557.888
   485.000   555.528
   500.000   552.912
   515.000   554.164
   530.000   561.350
   545.000   559.570
   560.000   555.876
   575.000   558.442
   590.000   558.719
   605.000   561.346
   620.000   558.103
   635.000   562.331
   650.000   559.330
   665.000   560.240
   680.000   567.100
   695.000   560.936
   710.000   554.661
   725.000   553.358
   740.000   553.672
   755.000   552.526
   770.000   551.672
   785.000   553.230
   800.000   548.413
   815.000   554.761
   830.000   549.582
   845.000   553.468
   860.000   550.022
   875.000   549.548
   890.000   553.446
   905.000   557.335
   920.000   556.607
   935.000   556.037
   950.000   558.342
   965.000   552.815
   980.000   556.367
   995.000   554.088
  1010.000   563.946
  1025.000   560.664
  1040.000   553.569
  1055.000   557.051
  1070.000   568.688
  1085.000   558.019
  1100.000   574.424
  1115.000   586.179
  1130.000   591.060
  1145.000   585.045
  1160.000   587.855
  1175.000   595.862
  1190.000   591.797
  1205.000   590.701
  1220.000   591.498
  1235.000   592.519
  1250.000   594.519
  1265.000   590.770
  1280.000   591.960
  1295.000   595.246
  1310.000   593.563
  1325.000   590.603
  1340.000   593.396
  1355.000   595.180
  1370.000   594.005
  1385.000   591.481
  1400.000   592.791
  1415.000   592.269
  1430.000   591.491
  1445.000   592.643
  1460.000   592.065
  1475.000   592.141
  1490.000   595.145
  1505.000   610.903
  1520.000   595.705
  1535.000   588.368
  1550.000   584.714
  1565.000   585.444
  1580.000   586.734
  1595.000   580.772
  1610.000   584.695
  1625.000   579.716
  1640.000   573.395
  1655.000   571.970
  1670.000   579.681
  1685.000   570.130
  1700.000   570.142
  1715.000   563.667
  1730.000   559.503
  1745.000   554.222
  1760.000   555.532
  1775.000   554.781
  1790.000   553.121
  1805.000   551.133
  1820.000   552.543
  1835.000   545.201
  1850.000   539.763
  1865.000   545.393
  1880.000   544.628
  1895.000   547.720
  1910.000   526.931
  1925.000   513.305
  1940.000   503.353
  1955.000   503.746
  1970.000   502.649
  1985.000   504.474
  2000.000   499.730
  2015.000   498.216
  2030.000   497.791
  2045.000   496.312
  2060.000   496.893
  2075.000   495.373
  2090.000   495.384
  2105.000   496.580
  2120.000   486.146
  2135.000   496.065
  2150.000   488.115
  2165.000   485.134
  2180.000   485.509
  2195.000   485.674
  2210.000   471.267
  2225.000   474.551
  2240.000   459.147
  2255.000   465.203
  2270.000   464.572
  2285.000   465.996
  2300.000   465.193
  2315.000   466.168
  2330.000   465.058
  2345.000   466.377
  2360.000   464.855
  2375.000   466.293
  2390.000   469.546
  2405.000   468.636
  2420.000   469.850
  2435.000   468.201
  2450.000   471.446
  2465.000   471.241
  2480.000   477.928
  2495.000   492.665
  2510.000   492.030
  2525.000   501.990
  2540.000   502.531
  2555.000   506.924
  2570.000   507.617
  2585.000   511.396
  2600.000   517.416
  2615.000   523.257
  2630.000   529.806
  2645.000   543.951
  2660.000   549.330
  2675.000   556.852
  2690.000   558.171
  2705.000   557.838
  2720.000   554.009
  2735.000   553.250
  2750.000   559.637
  2765.000   560.277
  2780.000   554.406
  2795.000   556.809
  2810.000   560.785
  2825.000   556.417
  2840.000   565.594
  2855.000   557.732
  2870.000   553.551
  2885.000   553.405
  2900.000   555.242
  2915.000   553.539
  2930.000   553.090
  2945.000   553.655
  2960.000   550.777
  2975.000   549.127
  2990.000   550.299
  3005.000   549.897
  3020.000   549.486
  3035.000   548.529
  3050.000   547.175
  3065.000   546.221
  3080.000   546.080
  3095.000   545.809
  3110.000   545.348
  3125.000   546.348
  3140.000   548.745
  3155.000   543.070
  3170.000   540.700
  3185.000   544.743
  3200.000   538.298
  3215.000   529.758
  3230.000   524.222
  3245.000   528.815
  3260.000   540.280
  3275.000   539.220
  3290.000   537.314
  3305.000   540.313
  3320.000   527.445
  3335.000   515.551
  3350.000   485.236
  3365.000   464.237
  3380.000   477.477
  3395.000   514.271
  3410.000   542.644
  3425.000   543.744
  3440.000   544.342
  3455.000   547.269
  3470.000   539.848
  3485.000   538.267
  3500.000   534.193
  3515.000   527.637
  3530.000   515.877
  3545.000   508.599
  3560.000   503.746
  3575.000   503.076
  3590.000   504.157
  3605.000   506.915
  3620.000   505.074
  3635.000   498.324
  3650.000   499.921
  3665.000   507.040
  3680.000   497.292
  3695.000   491.928
  3710.000   501.173
  3725.000   501.640
  3740.000   496.555
  3755.000   498.488
  3770.000   494.565
  3785.000   496.455
  3800.000   497.259
  3815.000   499.074
  3830.000   497.722
  3845.000   499.432
  3860.000   497.560
  3875.000   502.023
  3890.000   505.008
  3905.000   500.955
  3920.000   507.066
  3935.000   500.828
  3950.000   508.824
  3965.000   528.770
  3980.000   526.692
  3995.000   538.989
  4010.000   533.875
  4025.000   535.402
  4040.000   530.527
  4055.000   537.829
  4070.000   535.042
  4085.000   531.396
  4100.000   533.184
  4115.000   534.190
  4130.000   540.137
  4145.000   530.890
  4160.000   535.791
  4175.000   531.028
  4190.000   529.302
  4205.000   533.313
  4220.000   531.494
  4235.000   526.861
  4250.000   526.358
  4265.000   526.427
  4280.000   526.044
  4295.000   525.463
  4310.000   523.209
  4325.000   517.202
  4340.000   513.337
  4355.000   513.000
  4370.000   506.227
  4385.000   498.159
  4400.000   495.437
  4415.000   496.501
  4430.000   493.219
  4445.000   490.210
  4460.000   491.622
  4475.000   488.309
  4490.000   486.631
  4505.000   488.410
  4520.000   487.879
  4535.000   486.537
  4550.000   489.592
  4565.000   486.362
  4580.000   482.146
  4595.000   484.624
  4610.000   478.033
  4625.000   473.546
  4640.000   469.977
  4655.000   468.812
  4670.000   465.988
  4685.000   469.388
  4700.000   467.036
  4715.000   464.088
  4730.000   465.600
  4745.000   462.348
  4760.000   453.476
  4775.000   451.588
  4790.000   456.587
  4805.000   461.082
  4820.000   443.974
  4835.000   427.425
  4850.000   422.318
  4865.000   419.097
  4880.000   415.311
  4895.000   414.976
  4910.000   429.675
  4925.000   422.706
  4940.000   417.675
  4955.000   416.600
  4970.000   422.776
  4985.000   433.664
  5000.000   433.422
  5015.000   444.130
  5030.000   438.287
  5045.000   438.886
  5060.000   421.806
  5075.000   416.717
  5090.000   421.549
  5105.000   425.839
  5120.000   429.075
  5135.000   431.077
  5150.000   436.186
  5165.000   450.323
  5180.000   461.126
  5195.000   452.859
  5210.000   442.545
  5225.000   441.875
  5240.000   452.695
  5255.000   458.078
  5270.000   454.561
  5285.000   451.774
  5300.000   463.225
  5315.000   457.953
  5330.000   461.191
  5345.000   465.354
  5360.000   461.615
  5375.000   461.600
  5390.000   464.165
  5405.000   464.014
  5420.000   468.205
  5435.000   475.470
  5450.000   469.534
  5465.000   466.573
  5480.000   466.626
  5495.000   472.133
  5510.000   471.719
  5525.000   475.240
  5540.000   480.685
  5555.000   492.033
  5570.000   493.981
  5585.000   498.303
  5600.000   498.079
  5615.000   498.030
  5630.000   490.975
  5645.000   496.532
  5660.000   499.235
  5675.000   496.356
  5690.000   503.799
  5705.000   501.581
  5720.000   496.911
  5735.000   494.650
  5750.000   496.296
  5765.000   504.814
  5780.000   512.628
  5795.000   511.199
  5810.000   511.681
  5825.000   507.232
  5840.000   514.481
  5855.000   522.650
  5870.000   536.680
  5885.000   527.546
  5900.000   532.598
  5915.000   516.603
  5930.000   519.316
  5945.000   523.991
  5960.000   521.040
  5975.000   515.636
  5990.000   509.884
  6005.000   513.062
  6020.000   511.624
  6035.000   519.073
  6050.000   511.043
  6065.000   504.870
  6080.000   496.822
  6095.000   502.052
  6110.000   502.267
  6125.000   495.996
  6140.000   502.817
  6155.000   494.139
  6170.000   499.708
  6185.000   504.939
  6200.000   504.426
  6215.000   507.698
  6230.000   495.535
  6245.000   492.594
  6260.000   488.511
  6275.000   489.368
  6290.000   487.254
  6305.000   483.357
  6320.000   481.179
  6335.000   473.441
  6350.000   477.656
  6365.000   486.348
  6380.000   470.294
  6395.000   460.775
  6410.000   455.987
  6425.000   394.607
  6440.000   392.501
  6455.000   396.184
  6470.000   393.207
  6485.000   384.009
  6500.000   383.813
  6515.000   398.645
  6530.000   393.619
  6545.000   407.848
  6560.000   407.580
  6575.000   416.972
  6590.000   415.385
  6605.000   439.143
  6620.000   441.534
  6635.000   466.698
  6650.000   477.664
  6665.000   481.362
  6680.000   478.474
  6695.000   478.705
  6710.000   479.651
  6725.000   479.964
  6740.000   483.497
  6755.000   485.479
  6770.000   484.498
  6785.000   478.257
  6800.000   475.392
  6815.000   474.989
  6830.000   474.553
  6845.000   476.396
  6860.000   473.169
  6875.000   473.393
  6890.000   472.977
  6905.000   475.918
  6920.000   472.092
  6935.000   467.213
  6950.000   463.594
  6965.000   466.611
  6980.000   464.957
  6995.000   464.335
  7010.000   462.704
  7025.000   464.552
  7040.000   463.732
  7055.000   459.580
  7070.000   458.804
  7085.000   465.717
  7100.000   462.611
  7115.000   456.368
  7130.000   464.601
  7145.000   465.348
  7160.000   462.262
  7175.000   457.221
  7190.000   459.135
  7205.000   456.268
  7220.000   458.069
  7235.000   456.157
  7250.000   454.908
  7265.000   452.407
  7280.000   446.465
  7295.000   445.026
  7310.000   441.406
  7325.000   435.656
  7340.000   422.311
  7355.000   423.533
  7370.000   437.876
  7385.000   441.878
  7400.000   444.529
  7415.000   444.514
  7430.000   440.910
  7445.000   442.452
  7460.000   443.792
  7475.000   443.267
  7490.000   449.663
  7505.000   443.175
  7520.000   444.399
  7535.000   441.718
  7550.000   443.419
  7565.000   442.838
  7580.000   441.579
  7595.000   373.465
  7610.000   365.194
  7625.000   360.987
  7640.000   366.526
  7655.000   364.703
  7670.000   364.883
  7685.000   368.302
  7700.000   362.770
  7715.000   364.220
  7730.000   364.429
  7745.000   366.406
  7760.000   370.339
  7775.000   375.700
  7790.000   380.224
  7805.000   366.468
  7820.000   392.592
  7835.000   398.696
  7850.000   395.364
  7865.000   391.636
  7880.000   422.334
  7895.000   425.189
  7910.000   429.461
  7925.000   429.361
  7940.000   433.084
  7955.000   432.273
  7970.000   437.439
  7985.000   440.625
  8000.000   450.797
  8015.000   439.302
  8030.000   442.888
  8045.000   456.261
  8060.000   455.371
  8075.000   452.944
  8090.000   452.088
  8105.000   455.802
  8120.000   460.097
  8135.000   455.656
  8150.000   453.379
  8165.000   462.498
  8180.000   475.446
  8195.000   489.750
  8210.000   492.166
  8225.000   489.284
  8240.000   476.733
  8255.000   476.642
  8270.000   463.514
  8285.000   443.657
  8300.000   463.961
  8315.000   472.070
  8330.000   471.241
  8345.000   466.506
  8360.000   475.230
  8375.000   469.499
  8390.000   470.017
  8405.000   481.494
  8420.000   470.443
  8435.000   465.587
  8450.000   469.195
  8465.000   468.411
  8480.000   469.747
  8495.000   468.294
  8510.000   469.254
  8525.000   465.455
  8540.000   465.573
  8555.000   486.386
  8570.000   499.765
  8585.000   503.776
  8600.000   508.749
  8615.000   509.938
  8630.000   511.073
  8645.000   510.600
  8660.000   513.846
  8675.000   514.667
  8690.000   515.331
  8705.000   516.206
  8720.000   513.146
  8735.000   512.488
  8750.000   510.846
  8765.000   513.313
  8780.000   517.246
  8795.000   513.945
  8810.000   514.284
  8825.000   513.182
  8840.000   509.818
  8855.000   507.575
  8870.000   512.925
  8885.000   510.608
  8900.000   510.340
  8915.000   508.062
  8930.000   514.654
  8945.000   508.150
  8960.000   510.666
  8975.000   509.560
  8990.000   527.330
  9005.000   530.778
  9020.000   525.808
  9035.000   470.510
  9050.000   483.011
  9065.000   490.124
  9080.000   517.505
  9095.000   533.067
  9110.000   539.537
  9125.000   534.862
  9140.000   535.660
  9155.000   533.280
  9170.000   533.936
  9185.000   536.271
  9200.000   536.294
  9215.000   533.592
  9230.000   538.997
  9245.000   530.182
  9260.000   515.246
  9275.000   490.947
  9290.000   473.493
  9305.000   476.636
  9320.000   450.661
  9335.000   446.573
  9350.000   403.841
  9365.000   454.674
  9380.000   478.397
  9395.000   479.170
  9410.000   476.952
  9425.000   526.993
  9440.000   519.262
  9455.000   510.336
  9470.000   497.617
  9485.000   497.015
  9500.000   485.689
  9515.000   485.882
  9530.000   482.070
  9545.000   478.441
  9560.000   466.701
  9575.000   470.079
  9590.000   460.838
  9605.000   463.078
  9620.000   470.993
  9635.000   470.805
  9650.000   470.660
  9665.000   457.981
  9680.000   456.025
  9695.000   450.806
  9710.000   451.456
  9725.000   428.623
  9740.000   369.520
  9755.000   363.967
  9770.000   382.751
  9785.000   392.732
  9800.000   414.420
  9815.000   427.083
  9830.000   432.995
  9845.000   415.591
  9860.000   414.988
  9875.000   414.273
  9890.000   421.163
  9905.000   432.844
  9920.000   423.547
  9935.000   423.075
  9950.000   415.871
  9965.000   409.581
  9980.000   400.194
  9995.000   401.656
 10010.000   412.534
 10025.000   403.017
 10040.000   406.635
 10055.000   400.905
 10070.000   404.407
 10085.000   402.744
 10100.000   401.482
 10115.000   403.097
 10130.000   403.255
 10145.000   410.406
 10160.000   409.238
 10175.000   411.062
 10190.000   408.007
 10265.000   418.293
 10280.000   421.709
 10295.000   425.638
 10310.000   421.431
 10325.000   419.300
 10340.000   421.254
 10355.000   418.958
 10370.000   419.995
 10385.000   428.951
 10400.000   424.628
 10415.000   423.612
 10430.000   423.816
 10445.000   429.786
 10460.000   425.430
 10475.000   430.354
 10490.000   422.484
 10505.000   422.786
 10520.000   422.111
 10535.000   428.464
 10550.000   415.925
 10565.000   422.288
 10580.000   427.644
 10595.000   411.717
 10610.000   427.002
 10625.000   445.467
 10640.000   447.968
 10655.000   443.044
 10670.000   439.805
 10685.000   445.731
 10700.000   442.334
 10715.000   441.609
 10730.000   449.112
 10745.000   449.218
 10760.000   435.699
 10775.000   442.858
 10790.000   445.671
 10805.000   439.525
 10820.000   444.522
 10835.000   452.665
 10850.000   451.485
 10865.000   442.857
 10880.000   445.652
 10895.000   444.753
 10910.000   442.724
 10925.000   441.887
 10940.000   445.280
 10955.000   450.498
 10970.000   442.353
 10985.000   445.553
 11000.000   441.430
 11015.000   447.336
 11030.000   442.534
 11045.000   440.878
 11060.000   453.875
 11075.000   453.672
 11090.000   458.472
 11105.000   465.302
 11120.000   448.910
 11135.000   444.635
 11150.000   441.648
 11165.000   441.699
 11180.000   443.540
 11195.000   442.212
 11210.000   439.660
 11225.000   439.717
 11240.000   446.552
 11255.000   443.024
 11270.000   445.587
 11285.000   445.260
 11300.000   449.994
 11315.000   445.349
 11330.000   440.909
 11345.000   436.084
 11360.000   437.840
 11375.000   435.409
 11390.000   429.572
 11405.000   424.314
 11420.000   423.623
 11435.000   423.297
 11450.000   421.628
 11465.000   421.501
 11480.000   431.841
 11495.000   418.530
 11510.000   420.289
 11525.000   418.322
 11540.000   418.455
 11555.000   415.811
 11570.000   418.033
 11585.000   431.858
 11600.000   429.194
 11615.000   436.908
 11630.000   417.260
 11645.000   411.650
 11660.000   407.407
 11675.000   404.360
 11690.000   407.365
 11705.000   401.451
 11720.000   409.286
 11735.000   406.108
 11750.000   404.371
 11765.000   402.100
 11780.000   400.919
 11795.000   402.244
 11810.000   410.816
 11825.000   403.697
 11840.000   404.023
 11855.000   412.846
 11870.000   407.953
 11885.000   407.035
 11900.000   403.199
 11915.000   409.483
 11930.000   401.918
 11945.000   413.826
 11960.000   407.060
 11975.000   401.707
 11990.000   408.491
 12005.000   402.805
 12020.000   404.435
 12035.000   408.889
 12050.000   408.814
 12065.000   404.081
 12080.000   411.774
 12095.000   385.217
 12110.000   378.272
 12125.000   380.437
 12140.000   382.289
 12155.000   383.555
 12170.000   378.526
 12185.000   383.714
 12200.000   378.899
 12215.000   380.944
 12230.000   383.859
 12245.000   385.207
 12260.000   379.149
 12275.000   378.784
 12290.000   385.406
 12305.000   393.884
 12320.000   392.223
 12335.000   383.130
 12350.000   382.473
 12365.000   382.956
 12380.000   380.678
 12395.000   373.637
 12410.000   367.700
 12425.000   380.177
 12440.000   373.842
 12455.000   384.304
 12470.000   393.718
 12485.000   399.788
 12500.000   396.604
 12515.000   397.352
 12530.000   397.372
 12545.000   403.111
 12560.000   410.522
 12575.000   426.057
 12590.000   421.417
 12605.000   426.168
 12620.000   431.030
 12635.000   441.834
 12650.000   444.013
 12665.000   450.894
 12680.000   455.731
 12695.000   455.106
 12710.000   460.946
 12725.000   460.034
 12740.000   457.567
 12755.000   458.343
 12770.000   461.824
 12785.000   460.736
 12800.000   461.611
 12815.000   461.609
 12830.000   457.860
 12845.000   469.966
 12860.000   468.396
 12875.000   474.941
 12890.000   473.992
 12905.000   472.207
 12920.000   471.375
 12935.000   474.184
 12950.000   475.740
 12965.000   471.565
 12980.000   475.796
 12995.000   477.509
 13010.000   475.207
 13025.000   473.246
 13040.000   476.406
 13055.000   476.644
 13070.000   477.861
 13085.000   488.631
 13100.000   472.878
 13115.000   470.508
 13130.000   470.302
 13145.000   470.176
 13160.000   472.620
 13175.000   475.254
 13190.000   471.423
 13205.000   472.058
 13220.000   464.722
 13235.000   447.434
 13250.000   441.157
 13265.000   435.799
 13280.000   429.727
 13295.000   431.688
 13310.000   429.701
 13325.000   426.184
 13340.000   421.435
 13355.000   423.085
 13370.000   422.237
 13385.000   416.888
 13400.000   416.192
 13415.000   408.601
 13430.000   406.999
 13445.000   425.225
 13460.000   427.282
 13475.000   425.677
 13490.000   418.526
 13505.000   421.843
 13520.000   416.193
 13535.000   409.474
 13550.000   418.501
 13565.000   386.913
 13580.000   395.078
 13595.000   410.476
 13610.000   423.293
 13625.000   410.783
 13640.000   408.927
 13655.000   411.452
 13670.000   413.687
 13685.000   408.003
 13700.000   404.733
 13715.000   406.855
 13730.000   431.832
 13745.000   419.070
 13760.000   415.070
 13775.000   415.624
 13790.000   416.098
 13805.000   418.439
 13820.000   409.976
 13835.000   412.161
 13850.000   397.706
 13865.000   403.487
 13880.000   402.769
 13895.000   398.772
 13910.000   404.087
 13925.000   405.073
 13940.000   404.028
 13955.000   412.002
 13970.000   405.970
 13985.000   409.075
 14000.000   409.382
 14015.000   408.558
 14030.000   409.369
 14045.000   412.388
 14060.000   416.840
 14075.000   425.689
 14090.000   429.938
 14105.000   426.950
 14120.000   425.659
 14135.000   427.603
 14150.000   433.144
 14165.000   442.167
 14180.000   440.442
 14195.000   439.743
 14210.000   437.647
 14225.000   438.982
 14240.000   439.015
 14255.000   438.975
 14270.000   433.276
 14285.000   431.768
 14300.000   440.103
 14315.000   432.832
 14330.000   432.920
 14345.000   428.954
 14360.000   434.473
 14375.000   429.998
 14390.000   428.223
 14405.000   423.130
 14420.000   424.995
 14435.000   417.610
 14450.000   411.071
 14465.000   404.244
 14480.000   414.249
 14495.000   416.995
 14510.000   419.207
 14525.000   424.758
 14540.000   419.624
 14555.000   419.523
 14570.000   418.287
 14585.000   417.113
 14600.000   411.651
 14615.000   418.418
 14630.000   402.127
 14645.000   388.966
 14660.000   394.740
 14675.000   380.516
 14690.000   374.080
 14705.000   372.649
 14720.000   364.368
 14735.000   366.370
 14750.000   356.267
 14765.000   342.542
 14780.000   332.534
 14795.000   307.006
 14810.000   305.445
 14825.000   309.431
 14840.000   304.746
 14855.000   286.043
 14870.000   291.518
 14885.000   301.455
 14900.000   298.663
 14915.000   290.212
 14930.000   299.247
 14945.000   294.655
 14960.000   306.503
 14975.000   304.517
 14990.000   304.864
 15005.000   308.789
 15020.000   304.924
 15035.000   314.933
 15050.000   312.998
 15065.000   331.878
 15080.000   332.777
 15095.000   341.115
 15110.000   337.696
 15125.000   332.178
 15140.000   333.818
 15155.000   349.235
 15170.000   342.399
 15185.000   354.002
 15200.000   367.958
 15215.000   360.885
 15230.000   354.759
 15245.000   361.456
 15260.000   357.110
 15275.000   355.568
 15290.000   358.059
 15305.000   364.743
 15320.000   362.051
 15335.000   362.764
 15350.000   378.645
 15365.000   390.248
 15380.000   390.470
 15395.000   403.212
 15410.000   417.099
 15425.000   418.479
 15440.000   417.308
 15455.000   427.885
 15470.000   431.034
 15485.000   435.536
 15500.000   438.943
 15515.000   461.163
 15530.000   473.398
 15545.000   484.738
 15560.000   492.071
 15575.000   485.036
 15590.000   480.076
 15605.000   481.004
 15620.000   477.853
 15635.000   467.616
 15650.000   467.887
 15665.000   474.516
 15680.000   462.415
 15695.000   456.576
 15710.000   460.431
 15725.000   444.208
 15740.000   444.804
 15755.000   438.942
 15770.000   442.178
 15785.000   438.071
 15800.000   433.810
 15815.000   430.773
 15830.000   412.985
* Eure Apport ponctuel
$DPx
*temps(mn)|Débit(m3/s)
*---------++++++++++
     0.000    25.960
    10.000    25.960
    20.000    25.920
    30.000    25.920
    40.000    25.800
    50.000    25.760
    60.000    25.640
    70.000    25.640
    80.000    25.520
    90.000    25.480
   100.000    25.440
   110.000    25.440
   120.000    25.400
   130.000    25.400
   140.000    25.400
   150.000    25.360
   160.000    25.360
   170.000    25.400
   180.000    25.320
   190.000    25.360
   200.000    25.360
   210.000    25.400
   220.000    25.280
   230.000    25.320
   240.000    25.360
   250.000    25.320
   260.000    25.400
   270.000    25.360
   280.000    25.400
   290.000    25.440
   300.000    25.480
   310.000    25.440
   320.000    25.520
   330.000    25.640
   340.000    25.600
   350.000    25.520
   360.000    25.480
   370.000    25.520
   380.000    25.560
   390.000    25.480
   400.000    25.520
   410.000    25.560
   420.000    25.520
   430.000    25.560
   440.000    25.520
   450.000    25.600
   460.000    25.600
   470.000    25.560
   480.000    25.440
   490.000    25.440
   500.000    25.480
   510.000    25.520
   520.000    25.440
   530.000    25.400
   540.000    25.440
   550.000    25.480
   560.000    25.440
   570.000    25.440
   580.000    25.320
   590.000    25.320
   600.000    25.240
   610.000    25.160
   620.000    25.120
   630.000    25.240
   640.000    25.240
   650.000    25.320
   660.000    25.280
   670.000    25.240
   680.000    25.240
   690.000    25.120
   700.000    25.240
   710.000    25.240
   720.000    25.200
   730.000    25.160
   740.000    25.200
   750.000    25.200
   760.000    25.200
   770.000    25.120
   780.000    25.080
   790.000    25.080
   800.000    25.120
   810.000    25.160
   820.000    25.160
   830.000    25.200
   840.000    25.240
   850.000    25.280
   860.000    25.360
   870.000    25.320
   880.000    25.320
   890.000    25.160
   900.000    25.040
   910.000    25.000
   920.000    24.960
   930.000    24.960
   940.000    24.800
   950.000    24.560
   960.000    24.040
   970.000    23.560
   980.000    23.440
   990.000    23.400
  1000.000    23.400
  1010.000    23.480
  1020.000    23.440
  1030.000    23.400
  1040.000    23.360
  1050.000    23.360
  1060.000    23.360
  1070.000    23.560
  1080.000    23.600
  1090.000    23.640
  1100.000    23.720
  1110.000    23.800
  1120.000    23.920
  1130.000    24.120
  1140.000    24.280
  1150.000    24.480
  1160.000    24.520
  1170.000    24.560
  1180.000    24.520
  1190.000    24.480
  1200.000    24.560
  1210.000    24.520
  1220.000    24.560
  1230.000    24.640
  1240.000    24.680
  1250.000    24.680
  1260.000    24.800
  1270.000    24.800
  1280.000    24.880
  1290.000    25.000
  1300.000    25.040
  1310.000    25.080
  1320.000    25.080
  1330.000    25.120
  1340.000    25.160
  1350.000    25.080
  1360.000    25.040
  1370.000    25.000
  1380.000    25.040
  1390.000    25.080
  1400.000    25.080
  1410.000    25.080
  1420.000    25.120
  1430.000    25.120
  1440.000    25.160
  1450.000    25.160
  1460.000    25.200
  1470.000    25.200
  1480.000    25.280
  1490.000    25.400
  1500.000    25.360
  1510.000    25.440
  1520.000    25.560
  1530.000    25.640
  1540.000    25.800
  1550.000    25.840
  1560.000    25.720
  1570.000    25.600
  1580.000    25.600
  1590.000    25.560
  1600.000    25.640
  1610.000    25.560
  1620.000    25.520
  1630.000    25.560
  1640.000    25.440
  1650.000    25.400
  1660.000    25.320
  1670.000    25.280
  1680.000    25.360
  1690.000    25.440
  1700.000    25.480
  1710.000    25.400
  1720.000    25.400
  1730.000    25.320
  1740.000    25.320
  1750.000    25.440
  1760.000    25.400
  1770.000    25.400
  1780.000    25.360
  1790.000    25.440
  1800.000    25.440
  1810.000    25.200
  1820.000    25.080
  1830.000    24.920
  1840.000    24.920
  1850.000    24.840
  1860.000    24.760
  1870.000    24.760
  1880.000    24.720
  1890.000    24.680
  1900.000    24.680
  1910.000    24.600
  1920.000    24.640
  1930.000    24.600
  1940.000    24.520
  1950.000    24.440
  1960.000    24.400
  1970.000    24.440
  1980.000    24.400
  1990.000    24.360
  2000.000    24.360
  2010.000    24.320
  2020.000    24.240
  2030.000    24.160
  2040.000    24.080
  2050.000    24.000
  2060.000    23.960
  2070.000    23.880
  2080.000    23.880
  2090.000    24.000
  2100.000    24.120
  2110.000    24.080
  2120.000    23.920
  2130.000    23.800
  2140.000    23.800
  2150.000    23.800
  2160.000    23.760
  2170.000    23.840
  2180.000    23.880
  2190.000    23.800
  2200.000    23.840
  2210.000    23.680
  2220.000    23.680
  2230.000    23.680
  2240.000    23.640
  2250.000    23.600
  2260.000    23.600
  2270.000    23.560
  2280.000    23.560
  2290.000    23.600
  2300.000    23.680
  2310.000    23.680
  2320.000    23.640
  2330.000    23.600
  2340.000    23.640
  2350.000    23.640
  2360.000    23.600
  2370.000    23.600
  2380.000    23.680
  2390.000    23.680
  2400.000    23.640
  2410.000    23.680
  2420.000    23.640
  2430.000    23.600
  2440.000    23.600
  2450.000    23.600
  2460.000    23.560
  2470.000    23.640
  2480.000    23.720
  2490.000    23.720
  2500.000    23.640
  2510.000    23.600
  2520.000    23.520
  2530.000    23.600
  2540.000    23.600
  2550.000    23.600
  2560.000    23.600
  2570.000    23.600
  2580.000    23.640
  2590.000    23.720
  2600.000    23.760
  2610.000    23.800
  2620.000    23.840
  2630.000    23.760
  2640.000    23.840
  2650.000    23.920
  2660.000    23.920
  2670.000    23.880
  2680.000    23.840
  2690.000    23.920
  2700.000    24.200
  2710.000    24.240
  2720.000    24.200
  2730.000    24.120
  2740.000    24.080
  2750.000    24.040
  2760.000    24.080
  2770.000    24.000
  2780.000    24.000
  2790.000    23.960
  2800.000    23.920
  2810.000    23.920
  2820.000    24.040
  2830.000    24.040
  2840.000    24.080
  2850.000    24.120
  2860.000    24.160
  2870.000    24.080
  2880.000    24.120
  2890.000    24.120
  2900.000    24.040
  2910.000    24.160
  2920.000    24.160
  2930.000    24.160
  2940.000    24.120
  2950.000    24.160
  2960.000    24.080
  2970.000    24.120
  2980.000    24.080
  2990.000    24.120
  3000.000    24.200
  3010.000    24.120
  3020.000    24.160
  3030.000    24.160
  3040.000    24.160
  3050.000    24.160
  3060.000    24.120
  3070.000    24.080
  3080.000    24.120
  3090.000    24.160
  3100.000    24.200
  3110.000    24.040
  3120.000    24.000
  3130.000    24.120
  3140.000    24.240
  3150.000    24.200
  3160.000    24.080
  3170.000    24.120
  3180.000    24.080
  3190.000    24.160
  3200.000    24.120
  3210.000    24.120
  3220.000    24.160
  3230.000    24.200
  3240.000    24.240
  3250.000    24.200
  3260.000    24.120
  3270.000    24.080
  3280.000    24.160
  3290.000    24.200
  3300.000    24.200
  3310.000    24.120
  3320.000    24.120
  3330.000    24.200
  3340.000    24.160
  3350.000    24.080
  3360.000    24.120
  3370.000    24.200
  3380.000    24.280
  3390.000    24.240
  3400.000    24.200
  3410.000    24.240
  3420.000    24.160
  3430.000    24.160
  3440.000    24.080
  3450.000    24.120
  3460.000    24.040
  3470.000    24.000
  3480.000    24.000
  3490.000    24.040
  3500.000    23.960
  3510.000    23.960
  3520.000    24.000
  3530.000    23.920
  3540.000    23.920
  3550.000    23.920
  3560.000    23.920
  3570.000    23.920
  3580.000    23.880
  3590.000    23.840
  3600.000    23.920
  3610.000    24.000
  3620.000    24.000
  3630.000    23.960
  3640.000    23.920
  3650.000    23.840
  3660.000    23.880
  3670.000    23.880
  3680.000    23.800
  3690.000    23.800
  3700.000    23.720
  3710.000    23.640
  3720.000    23.760
  3730.000    23.720
  3740.000    23.640
  3750.000    23.600
  3760.000    23.600
  3770.000    23.640
  3780.000    23.760
  3790.000    23.720
  3800.000    23.640
  3810.000    23.640
  3820.000    23.720
  3830.000    23.680
  3840.000    23.640
  3850.000    23.680
  3860.000    23.640
  3870.000    23.600
  3880.000    23.720
  3890.000    23.600
  3900.000    23.640
  3910.000    23.640
  3920.000    23.720
  3930.000    23.600
  3940.000    23.640
  3950.000    23.640
  3960.000    23.640
  3970.000    23.600
  3980.000    23.640
  3990.000    23.680
  4000.000    23.640
  4010.000    23.560
  4020.000    23.640
  4030.000    23.640
  4040.000    23.640
  4050.000    23.560
  4060.000    23.640
  4070.000    23.640
  4080.000    23.600
  4090.000    23.680
  4100.000    23.680
  4110.000    23.720
  4120.000    23.640
  4130.000    23.720
  4140.000    23.720
  4150.000    23.720
  4160.000    23.720
  4170.000    23.720
  4180.000    23.760
  4190.000    23.760
  4200.000    23.720
  4210.000    23.680
  4220.000    23.800
  4230.000    23.760
  4240.000    23.760
  4250.000    23.760
  4260.000    23.800
  4270.000    23.760
  4280.000    23.800
  4290.000    23.840
  4300.000    23.800
  4310.000    23.760
  4320.000    23.760
  4330.000    23.720
  4340.000    23.720
  4350.000    23.760
  4360.000    23.760
  4370.000    23.800
  4380.000    23.680
  4390.000    23.640
  4400.000    23.720
  4410.000    23.720
  4420.000    23.760
  4430.000    23.720
  4440.000    23.720
  4450.000    23.640
  4460.000    23.600
  4470.000    23.680
  4480.000    23.680
  4490.000    23.600
  4500.000    23.640
  4510.000    23.680
  4520.000    23.600
  4530.000    23.640
  4540.000    23.640
  4550.000    23.600
  4560.000    23.680
  4570.000    23.640
  4580.000    23.600
  4590.000    23.600
  4600.000    23.680
  4610.000    23.680
  4620.000    23.680
  4630.000    23.680
  4640.000    23.720
  4650.000    23.720
  4660.000    23.680
  4670.000    23.680
  4680.000    23.680
  4690.000    23.640
  4700.000    23.680
  4710.000    23.720
  4720.000    23.640
  4730.000    23.680
  4740.000    23.760
  4750.000    23.720
  4760.000    23.680
  4770.000    23.800
  4780.000    23.760
  4790.000    23.760
  4800.000    23.800
  4810.000    23.800
  4820.000    23.760
  4830.000    23.760
  4840.000    23.680
  4850.000    23.760
  4860.000    23.800
  4870.000    23.760
  4880.000    23.800
  4890.000    23.840
  4900.000    23.880
  4910.000    23.880
  4920.000    23.760
  4930.000    23.800
  4940.000    23.840
  4950.000    23.840
  4960.000    23.840
  4970.000    23.720
  4980.000    23.680
  4990.000    23.640
  5000.000    23.680
  5010.000    23.680
  5020.000    23.680
  5030.000    23.720
  5040.000    23.720
  5050.000    23.720
  5060.000    23.640
  5070.000    23.640
  5080.000    23.720
  5090.000    23.680
  5100.000    23.680
  5110.000    23.560
  5120.000    23.680
  5130.000    23.640
  5140.000    23.600
  5150.000    23.600
  5160.000    23.640
  5170.000    23.720
  5180.000    23.640
  5190.000    23.640
  5200.000    23.640
  5210.000    23.520
  5220.000    23.640
  5230.000    23.640
  5240.000    23.680
  5250.000    23.640
  5260.000    23.640
  5270.000    23.560
  5280.000    23.600
  5290.000    23.640
  5300.000    23.560
  5310.000    23.520
  5320.000    23.520
  5330.000    23.520
  5340.000    23.560
  5350.000    23.520
  5360.000    23.560
  5370.000    23.600
  5380.000    23.600
  5390.000    23.640
  5400.000    23.600
  5410.000    23.560
  5420.000    23.520
  5430.000    23.480
  5440.000    23.520
  5450.000    23.480
  5460.000    23.440
  5470.000    23.440
  5480.000    23.440
  5490.000    23.400
  5500.000    23.400
  5510.000    23.320
  5520.000    23.360
  5530.000    23.400
  5540.000    23.360
  5550.000    23.320
  5560.000    23.320
  5570.000    23.240
  5580.000    23.160
  5590.000    23.080
  5600.000    22.960
  5610.000    22.920
  5620.000    22.800
  5630.000    22.680
  5640.000    22.360
  5650.000    21.760
  5660.000    21.600
  5670.000    21.480
  5680.000    21.480
  5690.000    21.520
  5700.000    21.520
  5710.000    21.480
  5720.000    21.440
  5730.000    21.400
  5740.000    21.360
  5750.000    21.360
  5760.000    21.360
  5770.000    21.360
  5780.000    21.320
  5790.000    21.280
  5800.000    21.280
  5810.000    21.240
  5820.000    21.200
  5830.000    21.280
  5840.000    21.280
  5850.000    21.280
  5860.000    21.360
  5870.000    21.440
  5880.000    21.520
  5890.000    21.640
  5900.000    21.640
  5910.000    21.640
  5920.000    21.800
  5930.000    21.840
  5940.000    21.880
  5950.000    21.960
  5960.000    22.040
  5970.000    22.080
  5980.000    22.040
  5990.000    22.080
  6000.000    22.080
  6010.000    22.120
  6020.000    22.080
  6030.000    22.080
  6040.000    22.080
  6050.000    22.200
  6060.000    22.200
  6070.000    22.160
  6080.000    22.160
  6090.000    22.200
  6100.000    22.200
  6110.000    22.160
  6120.000    22.240
  6130.000    22.240
  6140.000    22.240
  6150.000    22.280
  6160.000    22.320
  6170.000    22.320
  6180.000    22.280
  6190.000    22.280
  6200.000    22.280
  6210.000    22.240
  6220.000    22.320
  6230.000    22.360
  6240.000    22.240
  6250.000    22.280
  6260.000    22.320
  6270.000    22.400
  6280.000    22.440
  6290.000    22.440
  6300.000    22.480
  6310.000    22.480
  6320.000    22.480
  6330.000    22.440
  6340.000    22.480
  6350.000    22.600
  6360.000    22.600
  6370.000    22.560
  6380.000    22.560
  6390.000    22.520
  6400.000    22.520
  6410.000    22.520
  6420.000    22.520
  6430.000    22.520
  6440.000    22.560
  6450.000    22.560
  6460.000    22.520
  6470.000    22.520
  6480.000    22.520
  6490.000    22.520
  6500.000    22.520
  6510.000    22.520
  6520.000    22.480
  6530.000    22.400
  6540.000    22.480
  6550.000    22.440
  6560.000    22.360
  6570.000    22.360
  6580.000    22.360
  6590.000    22.400
  6600.000    22.360
  6610.000    22.360
  6620.000    22.400
  6630.000    22.360
  6640.000    22.280
  6650.000    22.280
  6660.000    22.200
  6670.000    22.280
  6680.000    22.320
  6690.000    22.320
  6700.000    22.360
  6710.000    22.400
  6720.000    22.320
  6730.000    22.360
  6740.000    22.360
  6750.000    22.320
  6760.000    22.320
  6770.000    22.320
  6780.000    22.240
  6790.000    22.120
  6800.000    22.040
  6810.000    21.960
  6820.000    21.920
  6830.000    21.760
  6840.000    21.720
  6850.000    21.720
  6860.000    21.760
  6870.000    21.760
  6880.000    21.800
  6890.000    21.800
  6900.000    21.920
  6910.000    21.920
  6920.000    21.960
  6930.000    22.040
  6940.000    22.080
  6950.000    22.200
  6960.000    22.160
  6970.000    22.280
  6980.000    22.280
  6990.000    22.360
  7000.000    22.360
  7010.000    22.440
  7020.000    22.640
  7030.000    22.680
  7040.000    22.720
  7050.000    22.720
  7060.000    22.800
  7070.000    22.880
  7080.000    22.920
  7090.000    22.920
  7100.000    22.920
  7110.000    22.960
  7120.000    23.000
  7130.000    23.040
  7140.000    23.040
  7150.000    23.080
  7160.000    23.080
  7170.000    23.080
  7180.000    23.040
  7190.000    23.120
  7200.000    23.120
  7210.000    23.120
  7220.000    23.200
  7230.000    23.240
  7240.000    23.240
  7250.000    23.200
  7260.000    23.160
  7270.000    23.080
  7280.000    23.120
  7290.000    23.080
  7300.000    23.120
  7310.000    23.040
  7320.000    23.000
  7330.000    23.040
  7340.000    22.960
  7350.000    23.000
  7360.000    23.000
  7370.000    23.000
  7380.000    23.000
  7390.000    23.000
  7400.000    22.880
  7410.000    22.920
  7420.000    22.960
  7430.000    22.920
  7440.000    22.960
  7450.000    22.920
  7460.000    22.960
  7470.000    22.960
  7480.000    23.040
  7490.000    23.000
  7500.000    23.000
  7510.000    23.000
  7520.000    22.960
  7530.000    22.960
  7540.000    23.000
  7550.000    22.960
  7560.000    23.040
  7570.000    23.120
  7580.000    23.120
  7590.000    23.120
  7600.000    23.160
  7610.000    23.080
  7620.000    23.080
  7630.000    23.200
  7640.000    23.040
  7650.000    23.080
  7660.000    23.040
  7670.000    23.080
  7680.000    23.120
  7690.000    23.280
  7700.000    23.280
  7710.000    23.200
  7720.000    23.240
  7730.000    23.280
  7740.000    23.240
  7750.000    23.320
  7760.000    23.280
  7770.000    23.320
  7780.000    23.320
  7790.000    23.360
  7800.000    23.280
  7810.000    23.280
  7820.000    23.240
  7830.000    23.200
  7840.000    23.200
  7850.000    23.160
  7860.000    23.160
  7870.000    23.160
  7880.000    23.120
  7890.000    23.040
  7900.000    23.080
  7910.000    22.960
  7920.000    22.920
  7930.000    22.920
  7940.000    22.960
  7950.000    22.880
  7960.000    22.800
  7970.000    22.760
  7980.000    22.800
  7990.000    22.760
  8000.000    22.640
  8010.000    22.640
  8020.000    22.600
  8030.000    22.600
  8040.000    22.560
  8050.000    22.520
  8060.000    22.560
  8070.000    22.560
  8080.000    22.480
  8090.000    22.440
  8100.000    22.480
  8110.000    22.440
  8120.000    22.480
  8130.000    22.440
  8140.000    22.400
  8150.000    22.400
  8160.000    22.400
  8170.000    22.400
  8180.000    22.400
  8190.000    22.360
  8200.000    22.360
  8210.000    22.400
  8220.000    22.360
  8230.000    22.240
  8240.000    22.280
  8250.000    22.360
  8260.000    22.360
  8270.000    22.360
  8280.000    22.240
  8290.000    22.280
  8300.000    22.280
  8310.000    22.240
  8320.000    22.200
  8330.000    22.240
  8340.000    22.240
  8350.000    22.240
  8360.000    22.160
  8370.000    22.160
  8380.000    22.240
  8390.000    22.200
  8400.000    22.240
  8410.000    22.200
  8420.000    22.120
  8430.000    22.160
  8440.000    22.160
  8450.000    22.200
  8460.000    22.200
  8470.000    22.200
  8480.000    22.240
  8490.000    22.120
  8500.000    22.160
  8510.000    22.240
  8520.000    22.280
  8530.000    22.280
  8540.000    22.160
  8550.000    22.200
  8560.000    22.160
  8570.000    22.160
  8580.000    22.160
  8590.000    22.200
  8600.000    22.200
  8610.000    22.240
  8620.000    22.160
  8630.000    22.200
  8640.000    22.160
  8650.000    22.200
  8660.000    22.240
  8670.000    22.160
  8680.000    22.240
  8690.000    22.280
  8700.000    22.280
  8710.000    22.240
  8720.000    22.280
  8730.000    22.240
  8740.000    22.280
  8750.000    22.240
  8760.000    22.240
  8770.000    22.240
  8780.000    22.280
  8790.000    22.240
  8800.000    22.240
  8810.000    22.160
  8820.000    22.160
  8830.000    22.240
  8840.000    22.240
  8850.000    22.280
  8860.000    22.200
  8870.000    22.280
  8880.000    22.240
  8890.000    22.240
  8900.000    22.280
  8910.000    22.280
  8920.000    22.240
  8930.000    22.320
  8940.000    22.280
  8950.000    22.320
  8960.000    22.280
  8970.000    22.280
  8980.000    22.280
  8990.000    22.360
  9000.000    22.280
  9010.000    22.200
  9020.000    22.280
  9030.000    22.280
  9040.000    22.280
  9050.000    22.320
  9060.000    22.240
  9070.000    22.240
  9080.000    22.280
  9090.000    22.320
  9100.000    22.360
  9110.000    22.400
  9120.000    22.400
  9130.000    22.440
  9140.000    22.440
  9150.000    22.440
  9160.000    22.440
  9170.000    22.520
  9180.000    22.640
  9190.000    22.600
  9200.000    22.600
  9210.000    22.560
  9220.000    22.600
  9230.000    22.560
  9240.000    22.520
  9250.000    22.520
  9260.000    22.520
  9270.000    22.520
  9280.000    22.480
  9290.000    22.440
  9300.000    22.360
  9310.000    22.280
  9320.000    22.240
  9330.000    22.240
  9340.000    22.160
  9350.000    22.160
  9360.000    22.240
  9370.000    22.160
  9380.000    22.120
  9390.000    22.120
  9400.000    22.120
  9410.000    22.080
  9420.000    22.080
  9430.000    22.120
  9440.000    22.000
  9450.000    22.080
  9460.000    22.120
  9470.000    22.080
  9480.000    22.080
  9490.000    22.120
  9500.000    22.160
  9510.000    22.080
  9520.000    22.080
  9530.000    22.120
  9540.000    22.160
  9550.000    22.080
  9560.000    22.120
  9570.000    22.040
  9580.000    22.080
  9590.000    22.120
  9600.000    22.160
  9610.000    22.160
  9620.000    22.120
  9630.000    22.120
  9640.000    22.160
  9650.000    22.120
  9660.000    22.120
  9670.000    22.160
  9680.000    22.120
  9690.000    22.120
  9700.000    22.120
  9710.000    22.120
  9720.000    22.080
  9730.000    22.120
  9740.000    22.120
  9750.000    22.120
  9760.000    22.120
  9770.000    22.200
  9780.000    22.160
  9790.000    22.120
  9800.000    22.200
  9810.000    22.200
  9820.000    22.160
  9830.000    22.200
  9840.000    22.200
  9850.000    22.160
  9860.000    22.160
  9870.000    22.160
  9880.000    22.080
  9890.000    22.080
  9900.000    22.080
  9910.000    22.080
  9920.000    22.120
  9930.000    22.080
  9940.000    22.160
  9950.000    22.240
  9960.000    22.160
  9970.000    22.320
  9980.000    22.280
  9990.000    22.240
 10000.000    22.160
 10010.000    22.080
 10020.000    22.000
 10030.000    21.960
 10040.000    21.920
 10050.000    21.880
 10060.000    21.760
 10070.000    21.760
 10080.000    21.800
 10090.000    21.720
 10100.000    21.800
 10110.000    21.760
 10120.000    21.800
 10130.000    21.760
 10140.000    21.840
 10150.000    21.800
 10160.000    21.840
 10170.000    21.880
 10180.000    21.880
 10190.000    21.960
 10200.000    22.000
 10210.000    22.000
 10220.000    22.040
 10230.000    22.080
 10240.000    22.080
 10250.000    22.040
 10260.000    22.080
 10270.000    22.040
 10280.000    21.960
 10290.000    22.000
 10300.000    21.880
 10310.000    21.840
 10320.000    21.720
 10330.000    21.800
 10340.000    21.800
 10350.000    21.720
 10360.000    21.680
 10370.000    21.720
 10380.000    21.720
 10390.000    21.800
 10400.000    21.760
 10410.000    21.840
 10420.000    21.880
 10430.000    21.920
 10440.000    21.960
 10450.000    22.000
 10460.000    22.000
 10470.000    21.960
 10480.000    21.920
 10490.000    21.960
 10500.000    22.040
 10510.000    22.000
 10520.000    22.040
 10530.000    22.040
 10540.000    22.000
 10550.000    21.960
 10560.000    21.920
 10570.000    21.920
 10580.000    21.920
 10590.000    21.880
 10600.000    21.960
 10610.000    21.840
 10620.000    21.880
 10630.000    21.920
 10640.000    21.960
 10650.000    21.920
 10660.000    21.840
 10670.000    21.880
 10680.000    21.920
 10690.000    21.840
 10700.000    21.920
 10710.000    21.800
 10720.000    21.720
 10730.000    21.720
 10740.000    21.760
 10750.000    21.760
 10760.000    21.680
 10770.000    21.720
 10780.000    21.720
 10790.000    21.680
 10800.000    21.680
 10810.000    21.680
 10820.000    21.640
 10830.000    21.720
 10840.000    21.680
 10850.000    21.600
 10860.000    21.600
 10870.000    21.600
 10880.000    21.640
 10890.000    21.640
 10900.000    21.600
 10910.000    21.560
 10920.000    21.560
 10930.000    21.480
 10940.000    21.480
 10950.000    21.480
 10960.000    21.560
 10970.000    21.480
 10980.000    21.480
 10990.000    21.520
 11000.000    21.480
 11010.000    21.520
 11020.000    21.560
 11030.000    21.560
 11040.000    21.520
 11050.000    21.480
 11060.000    21.480
 11070.000    21.520
 11080.000    21.560
 11090.000    21.520
 11100.000    21.520
 11110.000    21.480
 11120.000    21.480
 11130.000    21.480
 11140.000    21.520
 11150.000    21.480
 11160.000    21.440
 11170.000    21.520
 11180.000    21.480
 11190.000    21.400
 11200.000    21.520
 11210.000    21.520
 11220.000    21.520
 11230.000    21.480
 11240.000    21.480
 11250.000    21.440
 11260.000    21.480
 11270.000    21.440
 11280.000    21.440
 11290.000    21.520
 11300.000    21.480
 11310.000    21.480
 11320.000    21.520
 11330.000    21.520
 11340.000    21.480
 11350.000    21.480
 11360.000    21.520
 11370.000    21.560
 11380.000    21.480
 11390.000    21.400
 11400.000    21.440
 11410.000    21.400
 11420.000    21.400
 11430.000    21.440
 11440.000    21.360
 11450.000    21.400
 11460.000    21.400
 11470.000    21.360
 11480.000    21.400
 11490.000    21.400
 11500.000    21.400
 11510.000    21.440
 11520.000    21.440
 11530.000    21.400
 11540.000    21.360
 11550.000    21.400
 11560.000    21.480
 11570.000    21.480
 11580.000    21.480
 11590.000    21.480
 11600.000    21.480
 11610.000    21.400
 11620.000    21.480
 11630.000    21.560
 11640.000    21.520
 11650.000    21.560
 11660.000    21.480
 11670.000    21.440
 11680.000    21.480
 11690.000    21.600
 11700.000    21.560
 11710.000    21.520
 11720.000    21.560
 11730.000    21.640
 11740.000    21.600
 11750.000    21.600
 11760.000    21.640
 11770.000    21.640
 11780.000    21.640
 11790.000    21.680
 11800.000    21.640
 11810.000    21.640
 11820.000    21.720
 11830.000    21.720
 11840.000    21.680
 11850.000    21.760
 11860.000    21.720
 11870.000    21.720
 11880.000    21.760
 11890.000    21.800
 11900.000    21.800
 11910.000    21.840
 11920.000    21.760
 11930.000    21.720
 11940.000    21.880
 11950.000    21.880
 11960.000    21.760
 11970.000    21.800
 11980.000    21.800
 11990.000    21.760
 12000.000    21.800
 12010.000    21.840
 12020.000    21.800
 12030.000    21.800
 12040.000    21.920
 12050.000    21.840
 12060.000    21.760
 12070.000    21.840
 12080.000    21.760
 12090.000    21.720
 12100.000    21.800
 12110.000    21.760
 12120.000    21.720
 12130.000    21.760
 12140.000    21.720
 12150.000    21.640
 12160.000    21.680
 12170.000    21.720
 12180.000    21.680
 12190.000    21.760
 12200.000    21.720
 12210.000    21.760
 12220.000    21.720
 12230.000    21.640
 12240.000    21.680
 12250.000    21.640
 12260.000    21.720
 12270.000    21.680
 12280.000    21.600
 12290.000    21.600
 12300.000    21.720
 12310.000    21.640
 12320.000    21.560
 12330.000    21.640
 12340.000    21.640
 12350.000    21.640
 12360.000    21.520
 12370.000    21.560
 12380.000    21.600
 12390.000    21.600
 12400.000    21.640
 12410.000    21.600
 12420.000    21.640
 12430.000    21.600
 12440.000    21.480
 12450.000    21.560
 12460.000    21.560
 12470.000    21.520
 12480.000    21.480
 12490.000    21.400
 12500.000    21.440
 12510.000    21.480
 12520.000    21.480
 12530.000    21.480
 12540.000    21.440
 12550.000    21.400
 12560.000    21.400
 12570.000    21.440
 12580.000    21.320
 12590.000    21.360
 12600.000    21.400
 12610.000    21.440
 12620.000    21.360
 12630.000    21.360
 12640.000    21.400
 12650.000    21.320
 12660.000    21.400
 12670.000    21.360
 12680.000    21.360
 12690.000    21.320
 12700.000    21.240
 12710.000    21.240
 12720.000    21.161
 12730.000    21.200
 12740.000    21.161
 12750.000    21.082
 12760.000    21.004
 12770.000    21.121
 12780.000    21.004
 12790.000    20.886
 12800.000    20.847
 12810.000    20.925
 12820.000    20.886
 12830.000    20.847
 12840.000    20.807
 12850.000    20.847
 12860.000    20.768
 12870.000    20.807
 12880.000    20.729
 12890.000    20.690
 12900.000    20.729
 12910.000    20.690
 12920.000    20.690
 12930.000    20.650
 12940.000    20.650
 12950.000    20.650
 12960.000    20.611
 12970.000    20.572
 12980.000    20.611
 12990.000    20.572
 13000.000    20.611
 13010.000    20.572
 13020.000    20.493
 13030.000    20.533
 13040.000    20.572
 13050.000    20.454
 13060.000    20.533
 13070.000    20.533
 13080.000    20.533
 13090.000    20.533
 13100.000    20.572
 13110.000    20.611
 13120.000    20.533
 13130.000    20.572
 13140.000    20.572
 13150.000    20.493
 13160.000    20.493
 13170.000    20.572
 13180.000    20.572
 13190.000    20.572
 13200.000    20.572
 13210.000    20.572
 13220.000    20.533
 13230.000    20.650
 13240.000    20.611
 13250.000    20.572
 13260.000    20.572
 13270.000    20.572
 13280.000    20.611
 13290.000    20.729
 13300.000    20.611
 13310.000    20.650
 13320.000    20.650
 13330.000    20.768
 13340.000    20.768
 13350.000    20.729
 13360.000    20.768
 13370.000    20.768
 13380.000    20.729
 13390.000    20.807
 13400.000    20.807
 13410.000    20.768
 13420.000    20.768
 13430.000    20.847
 13440.000    20.847
 13450.000    20.886
 13460.000    20.925
 13470.000    20.768
 13480.000    20.807
 13490.000    20.847
 13500.000    20.807
 13510.000    20.807
 13520.000    20.847
 13530.000    20.886
 13540.000    20.925
 13550.000    20.886
 13560.000    20.886
 13570.000    20.886
 13580.000    20.847
 13590.000    20.847
 13600.000    20.807
 13610.000    20.807
 13620.000    20.886
 13630.000    20.886
 13640.000    20.768
 13650.000    20.886
 13660.000    20.886
 13670.000    20.847
 13680.000    20.847
 13690.000    20.886
 13700.000    20.847
 13710.000    20.807
 13720.000    20.807
 13730.000    20.886
 13740.000    20.847
 13750.000    20.729
 13760.000    20.768
 13770.000    20.807
 13780.000    20.886
 13790.000    20.925
 13800.000    20.886
 13810.000    20.807
 13820.000    20.847
 13830.000    20.807
 13840.000    20.768
 13850.000    20.807
 13860.000    20.729
 13870.000    20.768
 13880.000    20.768
 13890.000    20.847
 13900.000    20.807
 13910.000    20.768
 13920.000    20.650
 13930.000    20.650
 13940.000    20.690
 13950.000    20.690
 13960.000    20.611
 13970.000    20.611
 13980.000    20.650
 13990.000    20.690
 14000.000    20.650
 14010.000    20.611
 14020.000    20.611
 14030.000    20.650
 14040.000    20.650
 14050.000    20.572
 14060.000    20.572
 14070.000    20.572
 14080.000    20.533
 14090.000    20.493
 14100.000    20.454
 14110.000    20.493
 14120.000    20.493
 14130.000    20.533
 14140.000    20.533
 14150.000    20.454
 14160.000    20.415
 14170.000    20.454
 14180.000    20.533
 14190.000    20.493
 14200.000    20.454
 14210.000    20.454
 14220.000    20.493
 14230.000    20.454
 14240.000    20.454
 14250.000    20.415
 14260.000    20.454
 14270.000    20.454
 14280.000    20.493
 14290.000    20.493
 14300.000    20.493
 14310.000    20.493
 14320.000    20.533
 14330.000    20.572
 14340.000    20.690
 14350.000    20.650
 14360.000    20.650
 14370.000    20.650
 14380.000    20.650
 14390.000    20.611
 14400.000    20.611
 14410.000    20.650
 14420.000    20.690
 14430.000    20.690
 14440.000    20.690
 14450.000    20.690
 14460.000    20.690
 14470.000    20.690
 14480.000    20.650
 14490.000    20.690
 14500.000    20.690
 14510.000    20.690
 14520.000    20.650
 14530.000    20.729
 14540.000    20.690
 14550.000    20.729
 14560.000    20.690
 14570.000    20.690
 14580.000    20.690
 14590.000    20.690
 14600.000    20.650
 14610.000    20.690
 14620.000    20.729
 14630.000    20.729
 14640.000    20.729
 14650.000    20.768
 14660.000    20.690
 14670.000    20.729
 14680.000    20.690
 14690.000    20.650
 14700.000    20.650
 14710.000    20.768
 14720.000    20.650
 14730.000    20.650
 14740.000    20.650
 14750.000    20.611
 14760.000    20.611
 14770.000    20.611
 14780.000    20.611
 14790.000    20.650
 14800.000    20.611
 14810.000    20.650
 14820.000    20.611
 14830.000    20.533
 14840.000    20.572
 14850.000    20.572
 14860.000    20.572
 14870.000    20.572
 14880.000    20.572
 14890.000    20.572
 14900.000    20.611
 14910.000    20.572
 14920.000    20.533
 14930.000    20.533
 14940.000    20.533
 14950.000    20.533
 14960.000    20.572
 14970.000    20.533
 14980.000    20.572
 14990.000    20.572
 15000.000    20.572
 15010.000    20.493
 15020.000    20.533
 15030.000    20.533
 15040.000    20.493
 15050.000    20.454
 15060.000    20.533
 15070.000    20.454
 15080.000    20.454
 15090.000    20.415
 15100.000    20.454
 15110.000    20.454
 15120.000    20.415
 15130.000    20.454
 15140.000    20.415
 15150.000    20.415
 15160.000    20.415
 15170.000    20.415
 15180.000    20.493
 15190.000    20.454
 15200.000    20.415
 15210.000    20.454
 15220.000    20.493
 15230.000    20.454
 15240.000    20.493
 15250.000    20.493
 15260.000    20.415
 15270.000    20.376
 15280.000    20.454
 15290.000    20.493
 15300.000    20.415
 15310.000    20.376
 15320.000    20.493
 15330.000    20.415
 15340.000    20.336
 15350.000    20.336
 15360.000    20.336
 15370.000    20.454
 15380.000    20.415
 15390.000    20.336
 15400.000    20.376
 15410.000    20.376
 15420.000    20.415
 15430.000    20.376
 15440.000    20.336
 15450.000    20.336
 15460.000    20.336
 15470.000    20.376
 15480.000    20.336
 15490.000    20.297
 15500.000    20.336
 15510.000    20.336
 15520.000    20.336
 15530.000    20.376
 15540.000    20.336
 15550.000    20.454
 15560.000    20.415
 15570.000    20.336
 15580.000    20.376
 15590.000    20.493
 15600.000    20.415
 15610.000    20.336
 15620.000    20.415
 15630.000    20.415
 15640.000    20.415
 15650.000    20.415
 15660.000    20.376
 15670.000    20.415
 15680.000    20.376
 15690.000    20.415
 15700.000    20.415
 15710.000    20.376
 15720.000    20.415
 15730.000    20.415
 15740.000    20.415
 15750.000    20.415
 15760.000    20.376
 15770.000    20.376
 15780.000    20.376
 15790.000    20.336
 15800.000    20.454
 15810.000    20.415
 15820.000    20.454
 15830.000    20.415
